,AHU: Supply Air Temperature,AHU: Supply Air Temperature Heating Set Point,AHU: Supply Air Temperature Cooling Set Point,AHU: Outdoor Air Temperature,AHU: Mixed Air Temperature,AHU: Supply Air Fan Speed Control Signal,AHU: Outdoor Air Damper Control Signal,AHU: Return Air Damper Control Signal,AHU: Exhaust Air Damper Control Signal,AHU: Cooling Coil Valve Control Signal,AHU: Heating Coil Valve Control Signal,Occupancy Mode Indicator,Fault Detection Ground Truth
0,72.82,50.0,86.0,59.45,71.98,0.5,0.0,1.0,0.0,0.0,0.0,0,1
1,72.8,50.0,86.0,59.45,71.98,0.5,0.0,1.0,0.0,0.0,0.0,0,1
2,72.74,50.0,86.0,59.45,71.96,0.5,0.0,1.0,0.0,0.0,0.0,0,1
3,72.61,50.0,86.0,59.45,71.95,0.5,0.0,1.0,0.0,0.0,0.0,0,1
4,72.44,50.0,86.0,59.45,71.91,0.5,0.0,1.0,0.0,0.0,0.0,0,1
5,72.25,50.0,86.0,59.45,71.87,0.5,0.0,1.0,0.0,0.0,0.0,0,1
6,72.15,50.0,86.0,59.45,71.82,0.5,0.0,1.0,0.0,0.0,0.0,0,1
7,72.15,50.0,86.0,59.45,71.78,0.5,0.0,1.0,0.0,0.0,0.0,0,1
8,72.24,50.0,86.0,59.45,71.76,0.5,0.0,1.0,0.0,0.0,0.0,0,1
9,72.37,50.0,86.0,59.45,71.76,0.5,0.0,1.0,0.0,0.0,0.0,0,1
10,72.47,50.0,86.0,59.45,71.76,0.5,0.0,1.0,0.0,0.0,0.0,0,1
11,72.51,50.0,86.0,59.45,71.76,0.5,0.0,1.0,0.0,0.0,0.0,0,1
12,72.49,50.0,86.0,59.45,71.77,0.5,0.0,1.0,0.0,0.0,0.0,0,1
13,72.39,50.0,86.0,59.45,71.76,0.5,0.0,1.0,0.0,0.0,0.0,0,1
14,72.27,50.0,86.0,59.45,71.74,0.5,0.0,1.0,0.0,0.0,0.0,0,1
15,72.1,50.0,86.0,60.32,71.72,0.5,0.0,1.0,0.0,0.0,0.0,0,1
16,71.93,50.0,86.0,60.32,71.69,0.5,0.0,1.0,0.0,0.0,0.0,0,1
17,71.74,50.0,86.0,60.32,71.63,0.5,0.0,1.0,0.0,0.0,0.0,0,1
18,71.59,50.0,86.0,60.32,71.57,0.5,0.0,1.0,0.0,0.0,0.0,0,1
19,71.42,50.0,86.0,60.32,71.52,0.5,0.0,1.0,0.0,0.0,0.0,0,1
20,71.26,50.0,86.0,60.32,71.46,0.5,0.0,1.0,0.0,0.0,0.0,0,1
21,71.12,50.0,86.0,60.32,71.4,0.5,0.0,1.0,0.0,0.0,0.0,0,1
22,70.97,50.0,86.0,60.32,71.33,0.5,0.0,1.0,0.0,0.0,0.0,0,1
23,70.85,50.0,86.0,60.32,71.27,0.5,0.0,1.0,0.0,0.0,0.0,0,1
24,70.72,50.0,86.0,60.32,71.19,0.5,0.0,1.0,0.0,0.0,0.0,0,1
25,70.6,50.0,86.0,60.32,71.14,0.5,0.0,1.0,0.0,0.0,0.0,0,1
26,70.47,50.0,86.0,60.32,71.07,0.5,0.0,1.0,0.0,0.0,0.0,0,1
27,70.34,50.0,86.0,60.32,71.01,0.5,0.0,1.0,0.0,0.0,0.0,0,1
28,70.2,50.0,86.0,60.32,70.94,0.5,0.0,1.0,0.0,0.0,0.0,0,1
29,70.05,50.0,86.0,60.32,70.87,0.5,0.0,1.0,0.0,0.0,0.0,0,1
30,69.92,50.0,86.0,60.33,70.81,0.5,0.0,1.0,0.0,0.0,0.0,0,1
31,69.79,50.0,86.0,60.33,70.75,0.5,0.0,1.0,0.0,0.0,0.0,0,1
32,69.66,50.0,86.0,60.33,70.67,0.5,0.0,1.0,0.0,0.0,0.0,0,1
33,69.53,50.0,86.0,60.33,70.58,0.5,0.0,1.0,0.0,0.0,0.0,0,1
34,69.43,50.0,86.0,60.33,70.54,0.5,0.0,1.0,0.0,0.0,0.0,0,1
35,69.32,50.0,86.0,60.33,70.46,0.5,0.0,1.0,0.0,0.0,0.0,0,1
36,69.21,50.0,86.0,60.33,70.38,0.5,0.0,1.0,0.0,0.0,0.0,0,1
37,69.12,50.0,86.0,60.33,70.31,0.5,0.0,1.0,0.0,0.0,0.0,0,1
38,69.03,50.0,86.0,60.33,70.26,0.5,0.0,1.0,0.0,0.0,0.0,0,1
39,68.96,50.0,86.0,60.33,70.21,0.5,0.0,1.0,0.0,0.0,0.0,0,1
40,68.86,50.0,86.0,60.33,70.14,0.5,0.0,1.0,0.0,0.0,0.0,0,1
41,68.8,50.0,86.0,60.33,70.08,0.5,0.0,1.0,0.0,0.0,0.0,0,1
42,68.72,50.0,86.0,60.33,70.02,0.5,0.0,1.0,0.0,0.0,0.0,0,1
43,68.65,50.0,86.0,60.33,69.97,0.5,0.0,1.0,0.0,0.0,0.0,0,1
44,68.6,50.0,86.0,60.33,69.92,0.5,0.0,1.0,0.0,0.0,0.0,0,1
45,68.56,50.0,86.0,57.51,69.87,0.5,0.0,1.0,0.0,0.0,0.0,0,1
46,68.5,50.0,86.0,57.51,69.83,0.5,0.0,1.0,0.0,0.0,0.0,0,1
47,68.46,50.0,86.0,57.51,69.79,0.5,0.0,1.0,0.0,0.0,0.0,0,1
48,68.41,50.0,86.0,57.51,69.73,0.5,0.0,1.0,0.0,0.0,0.0,0,1
49,68.37,50.0,86.0,57.51,69.68,0.5,0.0,1.0,0.0,0.0,0.0,0,1
50,68.33,50.0,86.0,57.51,69.65,0.5,0.0,1.0,0.0,0.0,0.0,0,1
51,68.3,50.0,86.0,57.51,69.61,0.5,0.0,1.0,0.0,0.0,0.0,0,1
52,68.26,50.0,86.0,57.51,69.56,0.5,0.0,1.0,0.0,0.0,0.0,0,1
53,68.24,50.0,86.0,57.51,69.54,0.5,0.0,1.0,0.0,0.0,0.0,0,1
54,68.21,50.0,86.0,57.51,69.49,0.5,0.0,1.0,0.0,0.0,0.0,0,1
55,68.17,50.0,86.0,57.51,69.47,0.5,0.0,1.0,0.0,0.0,0.0,0,1
56,68.15,50.0,86.0,57.51,69.43,0.5,0.0,1.0,0.0,0.0,0.0,0,1
57,68.11,50.0,86.0,57.51,69.4,0.5,0.0,1.0,0.0,0.0,0.0,0,1
58,68.09,50.0,86.0,57.51,69.37,0.5,0.0,1.0,0.0,0.0,0.0,0,1
59,68.07,50.0,86.0,57.51,69.34,0.5,0.0,1.0,0.0,0.0,0.0,0,1
60,68.06,50.0,86.0,56.78,69.32,0.5,0.0,1.0,0.0,0.0,0.0,0,1
61,68.04,50.0,86.0,56.78,69.29,0.5,0.0,1.0,0.0,0.0,0.0,0,1
62,68.01,50.0,86.0,56.78,69.26,0.5,0.0,1.0,0.0,0.0,0.0,0,1
63,67.98,50.0,86.0,56.78,69.24,0.5,0.0,1.0,0.0,0.0,0.0,0,1
64,67.97,50.0,86.0,56.78,69.22,0.5,0.0,1.0,0.0,0.0,0.0,0,1
65,67.97,50.0,86.0,56.78,69.19,0.5,0.0,1.0,0.0,0.0,0.0,0,1
66,67.95,50.0,86.0,56.78,69.17,0.5,0.0,1.0,0.0,0.0,0.0,0,1
67,67.94,50.0,86.0,56.78,69.15,0.5,0.0,1.0,0.0,0.0,0.0,0,1
68,67.94,50.0,86.0,56.78,69.11,0.5,0.0,1.0,0.0,0.0,0.0,0,1
69,67.91,50.0,86.0,56.78,69.1,0.5,0.0,1.0,0.0,0.0,0.0,0,1
70,67.91,50.0,86.0,56.78,69.09,0.5,0.0,1.0,0.0,0.0,0.0,0,1
71,67.9,50.0,86.0,56.78,69.08,0.5,0.0,1.0,0.0,0.0,0.0,0,1
72,67.89,50.0,86.0,56.78,69.06,0.5,0.0,1.0,0.0,0.0,0.0,0,1
73,67.87,50.0,86.0,56.78,69.03,0.5,0.0,1.0,0.0,0.0,0.0,0,1
74,67.88,50.0,86.0,56.78,69.02,0.5,0.0,1.0,0.0,0.0,0.0,0,1
75,67.87,50.0,86.0,57.08,69.02,0.5,0.0,1.0,0.0,0.0,0.0,0,1
76,67.87,50.0,86.0,57.08,69.0,0.5,0.0,1.0,0.0,0.0,0.0,0,1
77,67.87,50.0,86.0,57.08,68.97,0.5,0.0,1.0,0.0,0.0,0.0,0,1
78,67.86,50.0,86.0,57.08,68.96,0.5,0.0,1.0,0.0,0.0,0.0,0,1
79,67.85,50.0,86.0,57.08,68.95,0.5,0.0,1.0,0.0,0.0,0.0,0,1
80,67.83,50.0,86.0,57.08,68.96,0.5,0.0,1.0,0.0,0.0,0.0,0,1
81,67.81,50.0,86.0,57.08,68.94,0.5,0.0,1.0,0.0,0.0,0.0,0,1
82,67.78,50.0,86.0,57.08,68.93,0.5,0.0,1.0,0.0,0.0,0.0,0,1
83,67.74,50.0,86.0,57.08,68.91,0.5,0.0,1.0,0.0,0.0,0.0,0,1
84,67.69,50.0,86.0,57.08,68.9,0.5,0.0,1.0,0.0,0.0,0.0,0,1
85,67.65,50.0,86.0,57.08,68.87,0.5,0.0,1.0,0.0,0.0,0.0,0,1
86,67.6,50.0,86.0,57.08,68.84,0.5,0.0,1.0,0.0,0.0,0.0,0,1
87,67.53,50.0,86.0,57.08,68.82,0.5,0.0,1.0,0.0,0.0,0.0,0,1
88,67.48,50.0,86.0,57.08,68.79,0.5,0.0,1.0,0.0,0.0,0.0,0,1
89,67.45,50.0,86.0,57.08,68.76,0.5,0.0,1.0,0.0,0.0,0.0,0,1
90,67.4,50.0,86.0,59.26,68.74,0.5,0.0,1.0,0.0,0.0,0.0,0,1
91,67.35,50.0,86.0,59.26,68.71,0.5,0.0,1.0,0.0,0.0,0.0,0,1
92,67.32,50.0,86.0,59.26,68.7,0.5,0.0,1.0,0.0,0.0,0.0,0,1
93,67.29,50.0,86.0,59.26,68.66,0.5,0.0,1.0,0.0,0.0,0.0,0,1
94,67.26,50.0,86.0,59.26,68.62,0.5,0.0,1.0,0.0,0.0,0.0,0,1
95,67.24,50.0,86.0,59.26,68.6,0.5,0.0,1.0,0.0,0.0,0.0,0,1
96,67.21,50.0,86.0,59.26,68.59,0.5,0.0,1.0,0.0,0.0,0.0,0,1
97,67.18,50.0,86.0,59.26,68.55,0.5,0.0,1.0,0.0,0.0,0.0,0,1
98,67.16,50.0,86.0,59.26,68.54,0.5,0.0,1.0,0.0,0.0,0.0,0,1
99,67.14,50.0,86.0,59.26,68.53,0.5,0.0,1.0,0.0,0.0,0.0,0,1
100,67.13,50.0,86.0,59.26,68.5,0.5,0.0,1.0,0.0,0.0,0.0,0,1
101,67.12,50.0,86.0,59.26,68.48,0.5,0.0,1.0,0.0,0.0,0.0,0,1
102,67.1,50.0,86.0,59.26,68.46,0.5,0.0,1.0,0.0,0.0,0.0,0,1
103,67.1,50.0,86.0,59.26,68.43,0.5,0.0,1.0,0.0,0.0,0.0,0,1
104,67.08,50.0,86.0,59.26,68.42,0.5,0.0,1.0,0.0,0.0,0.0,0,1
105,67.06,50.0,86.0,57.96,68.4,0.5,0.0,1.0,0.0,0.0,0.0,0,1
106,67.07,50.0,86.0,57.96,68.39,0.5,0.0,1.0,0.0,0.0,0.0,0,1
107,67.06,50.0,86.0,57.96,68.37,0.5,0.0,1.0,0.0,0.0,0.0,0,1
108,67.05,50.0,86.0,57.96,68.35,0.5,0.0,1.0,0.0,0.0,0.0,0,1
109,67.04,50.0,86.0,57.96,68.34,0.5,0.0,1.0,0.0,0.0,0.0,0,1
110,67.04,50.0,86.0,57.96,68.33,0.5,0.0,1.0,0.0,0.0,0.0,0,1
111,67.03,50.0,86.0,57.96,68.3,0.5,0.0,1.0,0.0,0.0,0.0,0,1
112,67.02,50.0,86.0,57.96,68.28,0.5,0.0,1.0,0.0,0.0,0.0,0,1
113,67.02,50.0,86.0,57.96,68.28,0.5,0.0,1.0,0.0,0.0,0.0,0,1
114,67.01,50.0,86.0,57.96,68.26,0.5,0.0,1.0,0.0,0.0,0.0,0,1
115,67.01,50.0,86.0,57.96,68.25,0.5,0.0,1.0,0.0,0.0,0.0,0,1
116,67.02,50.0,86.0,57.96,68.24,0.5,0.0,1.0,0.0,0.0,0.0,0,1
117,67.02,50.0,86.0,57.96,68.23,0.5,0.0,1.0,0.0,0.0,0.0,0,1
118,67.01,50.0,86.0,57.96,68.21,0.5,0.0,1.0,0.0,0.0,0.0,0,1
119,67.01,50.0,86.0,57.96,68.2,0.5,0.0,1.0,0.0,0.0,0.0,0,1
120,67.01,50.0,86.0,54.67,68.18,0.5,0.0,1.0,0.0,0.0,0.0,0,1
121,67.01,50.0,86.0,54.67,68.17,0.5,0.0,1.0,0.0,0.0,0.0,0,1
122,67.0,50.0,86.0,54.67,68.16,0.5,0.0,1.0,0.0,0.0,0.0,0,1
123,67.01,50.0,86.0,54.67,68.16,0.5,0.0,1.0,0.0,0.0,0.0,0,1
124,67.0,50.0,86.0,54.67,68.14,0.5,0.0,1.0,0.0,0.0,0.0,0,1
125,67.02,50.0,86.0,54.67,68.12,0.5,0.0,1.0,0.0,0.0,0.0,0,1
126,67.01,50.0,86.0,54.67,68.12,0.5,0.0,1.0,0.0,0.0,0.0,0,1
127,67.01,50.0,86.0,54.67,68.12,0.5,0.0,1.0,0.0,0.0,0.0,0,1
128,67.02,50.0,86.0,54.67,68.12,0.5,0.0,1.0,0.0,0.0,0.0,0,1
129,67.03,50.0,86.0,54.67,68.13,0.5,0.0,1.0,0.0,0.0,0.0,0,1
130,67.03,50.0,86.0,54.67,68.12,0.5,0.0,1.0,0.0,0.0,0.0,0,1
131,67.05,50.0,86.0,54.67,68.12,0.5,0.0,1.0,0.0,0.0,0.0,0,1
132,67.05,50.0,86.0,54.67,68.11,0.5,0.0,1.0,0.0,0.0,0.0,0,1
133,67.05,50.0,86.0,54.67,68.11,0.5,0.0,1.0,0.0,0.0,0.0,0,1
134,67.06,50.0,86.0,54.67,68.11,0.5,0.0,1.0,0.0,0.0,0.0,0,1
135,67.06,50.0,86.0,57.53,68.1,0.5,0.0,1.0,0.0,0.0,0.0,0,1
136,67.07,50.0,86.0,57.53,68.09,0.5,0.0,1.0,0.0,0.0,0.0,0,1
137,67.08,50.0,86.0,57.53,68.1,0.5,0.0,1.0,0.0,0.0,0.0,0,1
138,67.1,50.0,86.0,57.53,68.09,0.5,0.0,1.0,0.0,0.0,0.0,0,1
139,67.1,50.0,86.0,57.53,68.1,0.5,0.0,1.0,0.0,0.0,0.0,0,1
140,67.1,50.0,86.0,57.53,68.08,0.5,0.0,1.0,0.0,0.0,0.0,0,1
141,67.11,50.0,86.0,57.53,68.08,0.5,0.0,1.0,0.0,0.0,0.0,0,1
142,67.12,50.0,86.0,57.53,68.07,0.5,0.0,1.0,0.0,0.0,0.0,0,1
143,67.14,50.0,86.0,57.53,68.08,0.5,0.0,1.0,0.0,0.0,0.0,0,1
144,67.14,50.0,86.0,57.53,68.07,0.5,0.0,1.0,0.0,0.0,0.0,0,1
145,67.14,50.0,86.0,57.53,68.07,0.5,0.0,1.0,0.0,0.0,0.0,0,1
146,67.14,50.0,86.0,57.53,68.06,0.5,0.0,1.0,0.0,0.0,0.0,0,1
147,67.14,50.0,86.0,57.53,68.04,0.5,0.0,1.0,0.0,0.0,0.0,0,1
148,67.12,50.0,86.0,57.53,68.04,0.5,0.0,1.0,0.0,0.0,0.0,0,1
149,67.08,50.0,86.0,57.53,68.03,0.5,0.0,1.0,0.0,0.0,0.0,0,1
150,67.05,50.0,86.0,56.01,68.02,0.5,0.0,1.0,0.0,0.0,0.0,0,1
151,66.99,50.0,86.0,56.01,68.02,0.5,0.0,1.0,0.0,0.0,0.0,0,1
152,66.93,50.0,86.0,56.01,68.0,0.5,0.0,1.0,0.0,0.0,0.0,0,1
153,66.87,50.0,86.0,56.01,67.99,0.5,0.0,1.0,0.0,0.0,0.0,0,1
154,66.81,50.0,86.0,56.01,67.97,0.5,0.0,1.0,0.0,0.0,0.0,0,1
155,66.76,50.0,86.0,56.01,67.94,0.5,0.0,1.0,0.0,0.0,0.0,0,1
156,66.68,50.0,86.0,56.01,67.91,0.5,0.0,1.0,0.0,0.0,0.0,0,1
157,66.63,50.0,86.0,56.01,67.87,0.5,0.0,1.0,0.0,0.0,0.0,0,1
158,66.57,50.0,86.0,56.01,67.85,0.5,0.0,1.0,0.0,0.0,0.0,0,1
159,66.54,50.0,86.0,56.01,67.84,0.5,0.0,1.0,0.0,0.0,0.0,0,1
160,66.49,50.0,86.0,56.01,67.81,0.5,0.0,1.0,0.0,0.0,0.0,0,1
161,66.45,50.0,86.0,56.01,67.77,0.5,0.0,1.0,0.0,0.0,0.0,0,1
162,66.41,50.0,86.0,56.01,67.76,0.5,0.0,1.0,0.0,0.0,0.0,0,1
163,66.37,50.0,86.0,56.01,67.73,0.5,0.0,1.0,0.0,0.0,0.0,0,1
164,66.34,50.0,86.0,56.01,67.69,0.5,0.0,1.0,0.0,0.0,0.0,0,1
165,66.3,50.0,86.0,56.26,67.66,0.5,0.0,1.0,0.0,0.0,0.0,0,1
166,66.29,50.0,86.0,56.26,67.65,0.5,0.0,1.0,0.0,0.0,0.0,0,1
167,66.26,50.0,86.0,56.26,67.63,0.5,0.0,1.0,0.0,0.0,0.0,0,1
168,66.24,50.0,86.0,56.26,67.61,0.5,0.0,1.0,0.0,0.0,0.0,0,1
169,66.22,50.0,86.0,56.26,67.58,0.5,0.0,1.0,0.0,0.0,0.0,0,1
170,66.21,50.0,86.0,56.26,67.58,0.5,0.0,1.0,0.0,0.0,0.0,0,1
171,66.2,50.0,86.0,56.26,67.55,0.5,0.0,1.0,0.0,0.0,0.0,0,1
172,66.19,50.0,86.0,56.26,67.55,0.5,0.0,1.0,0.0,0.0,0.0,0,1
173,66.18,50.0,86.0,56.26,67.5,0.5,0.0,1.0,0.0,0.0,0.0,0,1
174,66.17,50.0,86.0,56.26,67.5,0.5,0.0,1.0,0.0,0.0,0.0,0,1
175,66.15,50.0,86.0,56.26,67.47,0.5,0.0,1.0,0.0,0.0,0.0,0,1
176,66.14,50.0,86.0,56.26,67.47,0.5,0.0,1.0,0.0,0.0,0.0,0,1
177,66.14,50.0,86.0,56.26,67.44,0.5,0.0,1.0,0.0,0.0,0.0,0,1
178,66.13,50.0,86.0,56.26,67.43,0.5,0.0,1.0,0.0,0.0,0.0,0,1
179,66.13,50.0,86.0,56.26,67.43,0.5,0.0,1.0,0.0,0.0,0.0,0,1
180,66.13,50.0,86.0,53.71,67.42,0.5,0.0,1.0,0.0,0.0,0.0,0,1
181,66.12,50.0,86.0,53.71,67.39,0.5,0.0,1.0,0.0,0.0,0.0,0,1
182,66.12,50.0,86.0,53.71,67.37,0.5,0.0,1.0,0.0,0.0,0.0,0,1
183,66.12,50.0,86.0,53.71,67.37,0.5,0.0,1.0,0.0,0.0,0.0,0,1
184,66.12,50.0,86.0,53.71,67.37,0.5,0.0,1.0,0.0,0.0,0.0,0,1
185,66.11,50.0,86.0,53.71,67.35,0.5,0.0,1.0,0.0,0.0,0.0,0,1
186,66.12,50.0,86.0,53.71,67.35,0.5,0.0,1.0,0.0,0.0,0.0,0,1
187,66.1,50.0,86.0,53.71,67.33,0.5,0.0,1.0,0.0,0.0,0.0,0,1
188,66.11,50.0,86.0,53.71,67.33,0.5,0.0,1.0,0.0,0.0,0.0,0,1
189,66.12,50.0,86.0,53.71,67.33,0.5,0.0,1.0,0.0,0.0,0.0,0,1
190,66.12,50.0,86.0,53.71,67.33,0.5,0.0,1.0,0.0,0.0,0.0,0,1
191,66.13,50.0,86.0,53.71,67.31,0.5,0.0,1.0,0.0,0.0,0.0,0,1
192,66.13,50.0,86.0,53.71,67.3,0.5,0.0,1.0,0.0,0.0,0.0,0,1
193,66.13,50.0,86.0,53.71,67.3,0.5,0.0,1.0,0.0,0.0,0.0,0,1
194,66.13,50.0,86.0,53.71,67.3,0.5,0.0,1.0,0.0,0.0,0.0,0,1
195,66.15,50.0,86.0,52.16,67.28,0.5,0.0,1.0,0.0,0.0,0.0,0,1
196,66.15,50.0,86.0,52.16,67.28,0.5,0.0,1.0,0.0,0.0,0.0,0,1
197,66.15,50.0,86.0,52.16,67.27,0.5,0.0,1.0,0.0,0.0,0.0,0,1
198,66.17,50.0,86.0,52.16,67.27,0.5,0.0,1.0,0.0,0.0,0.0,0,1
199,66.16,50.0,86.0,52.16,67.27,0.5,0.0,1.0,0.0,0.0,0.0,0,1
200,66.17,50.0,86.0,52.16,67.28,0.5,0.0,1.0,0.0,0.0,0.0,0,1
201,66.19,50.0,86.0,52.16,67.26,0.5,0.0,1.0,0.0,0.0,0.0,0,1
202,66.19,50.0,86.0,52.16,67.26,0.5,0.0,1.0,0.0,0.0,0.0,0,1
203,66.19,50.0,86.0,52.16,67.25,0.5,0.0,1.0,0.0,0.0,0.0,0,1
204,66.19,50.0,86.0,52.16,67.27,0.5,0.0,1.0,0.0,0.0,0.0,0,1
205,66.2,50.0,86.0,52.16,67.26,0.5,0.0,1.0,0.0,0.0,0.0,0,1
206,66.21,50.0,86.0,52.16,67.26,0.5,0.0,1.0,0.0,0.0,0.0,0,1
207,66.22,50.0,86.0,52.16,67.25,0.5,0.0,1.0,0.0,0.0,0.0,0,1
208,66.23,50.0,86.0,52.16,67.25,0.5,0.0,1.0,0.0,0.0,0.0,0,1
209,66.24,50.0,86.0,52.16,67.25,0.5,0.0,1.0,0.0,0.0,0.0,0,1
210,66.25,50.0,86.0,49.7,67.26,0.5,0.0,1.0,0.0,0.0,0.0,0,1
211,66.25,50.0,86.0,49.7,67.26,0.5,0.0,1.0,0.0,0.0,0.0,0,1
212,66.28,50.0,86.0,49.7,67.25,0.5,0.0,1.0,0.0,0.0,0.0,0,1
213,66.28,50.0,86.0,49.7,67.26,0.5,0.0,1.0,0.0,0.0,0.0,0,1
214,66.28,50.0,86.0,49.7,67.26,0.5,0.0,1.0,0.0,0.0,0.0,0,1
215,66.28,50.0,86.0,49.7,67.25,0.5,0.0,1.0,0.0,0.0,0.0,0,1
216,66.28,50.0,86.0,49.7,67.26,0.5,0.0,1.0,0.0,0.0,0.0,0,1
217,66.28,50.0,86.0,49.7,67.26,0.5,0.0,1.0,0.0,0.0,0.0,0,1
218,66.26,50.0,86.0,49.7,67.25,0.5,0.0,1.0,0.0,0.0,0.0,0,1
219,66.24,50.0,86.0,49.7,67.24,0.5,0.0,1.0,0.0,0.0,0.0,0,1
220,66.19,50.0,86.0,49.7,67.25,0.5,0.0,1.0,0.0,0.0,0.0,0,1
221,66.15,50.0,86.0,49.7,67.22,0.5,0.0,1.0,0.0,0.0,0.0,0,1
222,66.1,50.0,86.0,49.7,67.22,0.5,0.0,1.0,0.0,0.0,0.0,0,1
223,66.06,50.0,86.0,49.7,67.2,0.5,0.0,1.0,0.0,0.0,0.0,0,1
224,65.99,50.0,86.0,49.7,67.18,0.5,0.0,1.0,0.0,0.0,0.0,0,1
225,65.96,50.0,86.0,49.75,67.17,0.5,0.0,1.0,0.0,0.0,0.0,0,1
226,65.9,50.0,86.0,49.75,67.15,0.5,0.0,1.0,0.0,0.0,0.0,0,1
227,65.87,50.0,86.0,49.75,67.13,0.5,0.0,1.0,0.0,0.0,0.0,0,1
228,65.83,50.0,86.0,49.75,67.13,0.5,0.0,1.0,0.0,0.0,0.0,0,1
229,65.81,50.0,86.0,49.75,67.09,0.5,0.0,1.0,0.0,0.0,0.0,0,1
230,65.78,50.0,86.0,49.75,67.07,0.5,0.0,1.0,0.0,0.0,0.0,0,1
231,65.74,50.0,86.0,49.75,67.04,0.5,0.0,1.0,0.0,0.0,0.0,0,1
232,65.71,50.0,86.0,49.75,67.03,0.5,0.0,1.0,0.0,0.0,0.0,0,1
233,65.69,50.0,86.0,49.75,67.01,0.5,0.0,1.0,0.0,0.0,0.0,0,1
234,65.66,50.0,86.0,49.75,67.0,0.5,0.0,1.0,0.0,0.0,0.0,0,1
235,65.65,50.0,86.0,49.75,66.99,0.5,0.0,1.0,0.0,0.0,0.0,0,1
236,65.63,50.0,86.0,49.75,66.96,0.5,0.0,1.0,0.0,0.0,0.0,0,1
237,65.62,50.0,86.0,49.75,66.95,0.5,0.0,1.0,0.0,0.0,0.0,0,1
238,65.62,50.0,86.0,49.75,66.92,0.5,0.0,1.0,0.0,0.0,0.0,0,1
239,65.6,50.0,86.0,49.75,66.91,0.5,0.0,1.0,0.0,0.0,0.0,0,1
240,65.61,50.0,86.0,49.65,66.91,0.5,0.0,1.0,0.0,0.0,0.0,0,1
241,65.6,50.0,86.0,49.65,66.9,0.5,0.0,1.0,0.0,0.0,0.0,0,1
242,65.59,50.0,86.0,49.65,66.9,0.5,0.0,1.0,0.0,0.0,0.0,0,1
243,65.58,50.0,86.0,49.65,66.87,0.5,0.0,1.0,0.0,0.0,0.0,0,1
244,65.58,50.0,86.0,49.65,66.87,0.5,0.0,1.0,0.0,0.0,0.0,0,1
245,65.58,50.0,86.0,49.65,66.85,0.5,0.0,1.0,0.0,0.0,0.0,0,1
246,65.58,50.0,86.0,49.65,66.86,0.5,0.0,1.0,0.0,0.0,0.0,0,1
247,65.58,50.0,86.0,49.65,66.86,0.5,0.0,1.0,0.0,0.0,0.0,0,1
248,65.58,50.0,86.0,49.65,66.83,0.5,0.0,1.0,0.0,0.0,0.0,0,1
249,65.58,50.0,86.0,49.65,66.83,0.5,0.0,1.0,0.0,0.0,0.0,0,1
250,65.6,50.0,86.0,49.65,66.82,0.5,0.0,1.0,0.0,0.0,0.0,0,1
251,65.6,50.0,86.0,49.65,66.82,0.5,0.0,1.0,0.0,0.0,0.0,0,1
252,65.6,50.0,86.0,49.65,66.82,0.5,0.0,1.0,0.0,0.0,0.0,0,1
253,65.6,50.0,86.0,49.65,66.81,0.5,0.0,1.0,0.0,0.0,0.0,0,1
254,65.61,50.0,86.0,49.65,66.8,0.5,0.0,1.0,0.0,0.0,0.0,0,1
255,65.61,50.0,86.0,49.54,66.79,0.5,0.0,1.0,0.0,0.0,0.0,0,1
256,65.61,50.0,86.0,49.54,66.8,0.5,0.0,1.0,0.0,0.0,0.0,0,1
257,65.61,50.0,86.0,49.54,66.78,0.5,0.0,1.0,0.0,0.0,0.0,0,1
258,65.62,50.0,86.0,49.54,66.78,0.5,0.0,1.0,0.0,0.0,0.0,0,1
259,65.63,50.0,86.0,49.54,66.78,0.5,0.0,1.0,0.0,0.0,0.0,0,1
260,65.64,50.0,86.0,49.54,66.77,0.5,0.0,1.0,0.0,0.0,0.0,0,1
261,65.64,50.0,86.0,49.54,66.78,0.5,0.0,1.0,0.0,0.0,0.0,0,1
262,65.64,50.0,86.0,49.54,66.76,0.5,0.0,1.0,0.0,0.0,0.0,0,1
263,65.65,50.0,86.0,49.54,66.76,0.5,0.0,1.0,0.0,0.0,0.0,0,1
264,65.67,50.0,86.0,49.54,66.76,0.5,0.0,1.0,0.0,0.0,0.0,0,1
265,65.67,50.0,86.0,49.54,66.77,0.5,0.0,1.0,0.0,0.0,0.0,0,1
266,65.68,50.0,86.0,49.54,66.76,0.5,0.0,1.0,0.0,0.0,0.0,0,1
267,65.68,50.0,86.0,49.54,66.75,0.5,0.0,1.0,0.0,0.0,0.0,0,1
268,65.7,50.0,86.0,49.54,66.76,0.5,0.0,1.0,0.0,0.0,0.0,0,1
269,65.69,50.0,86.0,49.54,66.77,0.5,0.0,1.0,0.0,0.0,0.0,0,1
270,65.71,50.0,86.0,49.62,66.74,0.5,0.0,1.0,0.0,0.0,0.0,0,1
271,65.71,50.0,86.0,49.62,66.74,0.5,0.0,1.0,0.0,0.0,0.0,0,1
272,65.72,50.0,86.0,49.62,66.77,0.5,0.0,1.0,0.0,0.0,0.0,0,1
273,65.73,50.0,86.0,49.62,66.76,0.5,0.0,1.0,0.0,0.0,0.0,0,1
274,65.75,50.0,86.0,49.62,66.76,0.5,0.0,1.0,0.0,0.0,0.0,0,1
275,65.75,50.0,86.0,49.62,66.75,0.5,0.0,1.0,0.0,0.0,0.0,0,1
276,65.76,50.0,86.0,49.62,66.76,0.5,0.0,1.0,0.0,0.0,0.0,0,1
277,65.77,50.0,86.0,49.62,66.76,0.5,0.0,1.0,0.0,0.0,0.0,0,1
278,65.79,50.0,86.0,49.62,66.76,0.5,0.0,1.0,0.0,0.0,0.0,0,1
279,65.8,50.0,86.0,49.62,66.77,0.5,0.0,1.0,0.0,0.0,0.0,0,1
280,65.8,50.0,86.0,49.62,66.77,0.5,0.0,1.0,0.0,0.0,0.0,0,1
281,65.83,50.0,86.0,49.62,66.78,0.5,0.0,1.0,0.0,0.0,0.0,0,1
282,65.82,50.0,86.0,49.62,66.77,0.5,0.0,1.0,0.0,0.0,0.0,0,1
283,65.84,50.0,86.0,49.62,66.77,0.5,0.0,1.0,0.0,0.0,0.0,0,1
284,65.85,50.0,86.0,49.62,66.77,0.5,0.0,1.0,0.0,0.0,0.0,0,1
285,65.85,50.0,86.0,51.11,66.79,0.5,0.0,1.0,0.0,0.0,0.0,0,1
286,65.85,50.0,86.0,51.11,66.79,0.5,0.0,1.0,0.0,0.0,0.0,0,1
287,65.83,50.0,86.0,51.11,66.79,0.5,0.0,1.0,0.0,0.0,0.0,0,1
288,65.81,50.0,86.0,51.11,66.79,0.5,0.0,1.0,0.0,0.0,0.0,0,1
289,65.77,50.0,86.0,51.11,66.77,0.5,0.0,1.0,0.0,0.0,0.0,0,1
290,65.73,50.0,86.0,51.11,66.77,0.5,0.0,1.0,0.0,0.0,0.0,0,1
291,65.68,50.0,86.0,51.11,66.75,0.5,0.0,1.0,0.0,0.0,0.0,0,1
292,65.63,50.0,86.0,51.11,66.74,0.5,0.0,1.0,0.0,0.0,0.0,0,1
293,65.58,50.0,86.0,51.11,66.72,0.5,0.0,1.0,0.0,0.0,0.0,0,1
294,65.53,50.0,86.0,51.11,66.71,0.5,0.0,1.0,0.0,0.0,0.0,0,1
295,65.48,50.0,86.0,51.11,66.67,0.5,0.0,1.0,0.0,0.0,0.0,0,1
296,65.43,50.0,86.0,51.11,66.66,0.5,0.0,1.0,0.0,0.0,0.0,0,1
297,65.41,50.0,86.0,51.11,66.63,0.5,0.0,1.0,0.0,0.0,0.0,0,1
298,65.37,50.0,86.0,51.11,66.63,0.5,0.0,1.0,0.0,0.0,0.0,0,1
299,65.35,50.0,86.0,51.11,66.61,0.5,0.0,1.0,0.0,0.0,0.0,0,1
300,65.32,50.0,86.0,50.99,66.59,0.5,0.0,1.0,0.0,0.0,0.0,0,1
301,65.3,50.0,86.0,50.99,66.56,0.5,0.0,1.0,0.0,0.0,0.0,0,1
302,65.27,50.0,86.0,50.99,66.53,0.5,0.0,1.0,0.0,0.0,0.0,0,1
303,65.25,50.0,86.0,50.99,66.52,0.5,0.0,1.0,0.0,0.0,0.0,0,1
304,65.24,50.0,86.0,50.99,66.53,0.5,0.0,1.0,0.0,0.0,0.0,0,1
305,65.22,50.0,86.0,50.99,66.5,0.5,0.0,1.0,0.0,0.0,0.0,0,1
306,65.2,50.0,86.0,50.99,66.5,0.5,0.0,1.0,0.0,0.0,0.0,0,1
307,65.21,50.0,86.0,50.99,66.5,0.5,0.0,1.0,0.0,0.0,0.0,0,1
308,65.21,50.0,86.0,50.99,66.49,0.5,0.0,1.0,0.0,0.0,0.0,0,1
309,65.2,50.0,86.0,50.99,66.47,0.5,0.0,1.0,0.0,0.0,0.0,0,1
310,65.19,50.0,86.0,50.99,66.47,0.5,0.0,1.0,0.0,0.0,0.0,0,1
311,65.18,50.0,86.0,50.99,66.47,0.5,0.0,1.0,0.0,0.0,0.0,0,1
312,65.19,50.0,86.0,50.99,66.45,0.5,0.0,1.0,0.0,0.0,0.0,0,1
313,65.19,50.0,86.0,50.99,66.45,0.5,0.0,1.0,0.0,0.0,0.0,0,1
314,65.18,50.0,86.0,50.99,66.45,0.5,0.0,1.0,0.0,0.0,0.0,0,1
315,65.19,50.0,86.0,50.55,66.44,0.5,0.0,1.0,0.0,0.0,0.0,0,1
316,65.19,50.0,86.0,50.55,66.43,0.5,0.0,1.0,0.0,0.0,0.0,0,1
317,65.2,50.0,86.0,50.55,66.41,0.5,0.0,1.0,0.0,0.0,0.0,0,1
318,65.21,50.0,86.0,50.55,66.43,0.5,0.0,1.0,0.0,0.0,0.0,0,1
319,65.21,50.0,86.0,50.55,66.43,0.5,0.0,1.0,0.0,0.0,0.0,0,1
320,65.22,50.0,86.0,50.55,66.44,0.5,0.0,1.0,0.0,0.0,0.0,0,1
321,65.21,50.0,86.0,50.55,66.43,0.5,0.0,1.0,0.0,0.0,0.0,0,1
322,65.24,50.0,86.0,50.55,66.43,0.5,0.0,1.0,0.0,0.0,0.0,0,1
